Freq, S[1,1]re, S[1,1]im, CV[1,1], CV[2,1], CV[1,2], CV[2,2]
0, 8.826506E-02, 0.000000E+00, 0.000000E+00, 0.000000E+00, 0.000000E+00, 0.000000E+00
45000000, 8.806423E-02, -1.966572E-03, 2.025004E-05, 1.581592E-09, 1.581592E-09, 2.032082E-05
100000000, 8.808554E-02, -4.016630E-03, 2.025015E-05, 3.217771E-09, 3.217771E-09, 2.032057E-05
250000000, 8.813708E-02, -9.598300E-03, 2.025082E-05, 7.527709E-09, 7.527709E-09, 2.031912E-05
500000000, 8.704939E-02, -1.892771E-02, 2.025313E-05, 1.438264E-08, 1.438264E-08, 2.031615E-05
750000000, 8.466818E-02, -2.817278E-02, 2.025688E-05, 2.068309E-08, 2.068309E-08, 2.031216E-05
1000000000, 8.123464E-02, -3.712980E-02, 2.026191E-05, 2.605309E-08, 2.605309E-08, 2.030700E-05
1250000000, 7.677089E-02, -4.575425E-02, 2.026804E-05, 3.026797E-08, 3.026797E-08, 2.030079E-05
1500000000, 7.120446E-02, -5.380928E-02, 2.027509E-05, 3.319632E-08, 3.319632E-08, 2.029393E-05
1750000000, 6.464183E-02, -6.125742E-02, 2.028280E-05, 3.460795E-08, 3.460795E-08, 2.028652E-05
2000000000, 5.731156E-02, -6.803244E-02, 2.029064E-05, 3.423276E-08, 3.423276E-08, 2.027884E-05
2250000000, 4.946766E-02, -7.400688E-02, 2.029795E-05, 3.205256E-08, 3.205256E-08, 2.027142E-05
2500000000, 4.100394E-02, -7.895333E-02, 2.030470E-05, 2.840979E-08, 2.840979E-08, 2.026475E-05
2750000000, 3.233091E-02, -8.291377E-02, 2.031025E-05, 2.349433E-08, 2.349433E-08, 2.025916E-05
3000000000, 2.315940E-02, -8.608935E-02, 2.031450E-05, 1.735196E-08, 1.735196E-08, 2.025467E-05
3250000000, 1.352292E-02, -8.825878E-02, 2.031737E-05, 1.032268E-08, 1.032268E-08, 2.025158E-05
3500000000, 3.462170E-03, -8.925363E-02, 2.031880E-05, 2.668789E-09, 2.668789E-09, 2.025010E-05
3750000000, -6.412960E-03, -8.905954E-02, 2.031860E-05, -4.939423E-09, -4.939423E-09, 2.025036E-05
4000000000, -1.627278E-02, -8.757102E-02, 2.031698E-05, -1.244677E-08, -1.244677E-08, 2.025231E-05
4250000000, -2.591200E-02, -8.504262E-02, 2.031365E-05, -1.939326E-08, -1.939326E-08, 2.025591E-05
4500000000, -3.547743E-02, -8.163801E-02, 2.030836E-05, -2.536213E-08, -2.536213E-08, 2.026102E-05
4750000000, -4.456006E-02, -7.731149E-02, 2.030182E-05, -2.986943E-08, -2.986943E-08, 2.026722E-05
5000000000, -5.306243E-02, -7.202694E-02, 2.029452E-05, -3.279925E-08, -3.279925E-08, 2.027416E-05
5250000000, -6.077457E-02, -6.563516E-02, 2.028699E-05, -3.424962E-08, -3.424962E-08, 2.028171E-05
5500000000, -6.731087E-02, -5.836538E-02, 2.027973E-05, -3.428150E-08, -3.428150E-08, 2.028954E-05
5750000000, -7.337576E-02, -5.039867E-02, 2.027224E-05, -3.237765E-08, -3.237765E-08, 2.029714E-05
6000000000, -7.875139E-02, -4.188540E-02, 2.026524E-05, -2.864633E-08, -2.864633E-08, 2.030386E-05
6250000000, -8.329463E-02, -3.293180E-02, 2.025926E-05, -2.342877E-08, -2.342877E-08, 2.030926E-05
6500000000, -8.676865E-02, -2.351357E-02, 2.025465E-05, -1.717103E-08, -1.717103E-08, 2.031336E-05
6750000000, -8.916371E-02, -1.367775E-02, 2.025155E-05, -1.012397E-08, -1.012397E-08, 2.031600E-05
7000000000, -9.038834E-02, -3.481717E-03, 2.025010E-05, -2.583799E-09, -2.583799E-09, 2.031708E-05
7250000000, -9.031493E-02, 6.659176E-03, 2.025036E-05, 4.914932E-09, 4.914932E-09, 2.031666E-05
7500000000, -8.930996E-02, 1.670506E-02, 2.025225E-05, 1.203231E-08, 1.203231E-08, 2.031433E-05
7750000000, -8.735467E-02, 2.647548E-02, 2.025555E-05, 1.831059E-08, 1.831059E-08, 2.031041E-05
8000000000, -8.420740E-02, 3.598165E-02, 2.026012E-05, 2.368105E-08, 2.368105E-08, 2.030542E-05
8250000000, -8.000253E-02, 4.488870E-02, 2.026564E-05, 2.786875E-08, 2.786875E-08, 2.029967E-05
8500000000, -7.471437E-02, 5.322809E-02, 2.027199E-05, 3.086135E-08, 3.086135E-08, 2.029332E-05
8750000000, -6.854599E-02, 6.109991E-02, 2.027886E-05, 3.237494E-08, 3.237494E-08, 2.028632E-05
9000000000, -6.174083E-02, 6.832380E-02, 2.028567E-05, 3.223700E-08, 3.223700E-08, 2.027913E-05
9250000000, -5.435729E-02, 7.488670E-02, 2.029203E-05, 3.050882E-08, 3.050882E-08, 2.027215E-05
9500000000, -4.647045E-02, 8.061099E-02, 2.029764E-05, 2.746225E-08, 2.746225E-08, 2.026583E-05
9750000000, -3.788028E-02, 8.516516E-02, 2.030280E-05, 2.348493E-08, 2.348493E-08, 2.026045E-05
10000000000, -2.868990E-02, 8.857118E-02, 2.030737E-05, 1.858438E-08, 1.858438E-08, 2.025602E-05
10250000000, -1.905899E-02, 9.100946E-02, 2.031089E-05, 1.275046E-08, 1.275046E-08, 2.025267E-05
10500000000, -9.241326E-03, 9.267831E-02, 2.031272E-05, 6.254110E-09, 6.254110E-09, 2.025062E-05
10750000000, 5.275318E-04, 9.320103E-02, 2.031325E-05, -3.580263E-10, -3.580263E-10, 2.025000E-05
11000000000, 1.002315E-02, 9.266099E-02, 2.031253E-05, -6.763406E-09, -6.763406E-09, 2.025073E-05
11250000000, 1.958014E-02, 9.082706E-02, 2.031083E-05, -1.311245E-08, -1.311245E-08, 2.025283E-05
11500000000, 2.884317E-02, 8.788682E-02, 2.030798E-05, -1.902885E-08, -1.902885E-08, 2.025624E-05
11750000000, 3.774941E-02, 8.401485E-02, 2.030390E-05, -2.421715E-08, -2.421715E-08, 2.026088E-05
12000000000, 4.615907E-02, 7.938274E-02, 2.029871E-05, -2.832142E-08, -2.832142E-08, 2.026647E-05
12250000000, 5.375879E-02, 7.404518E-02, 2.029298E-05, -3.120710E-08, -3.120710E-08, 2.027266E-05
12500000000, 6.057326E-02, 6.773460E-02, 2.028699E-05, -3.307549E-08, -3.307549E-08, 2.027958E-05
12750000000, 6.682575E-02, 6.048736E-02, 2.028047E-05, -3.366142E-08, -3.366142E-08, 2.028719E-05
13000000000, 7.250307E-02, 5.265416E-02, 2.027364E-05, -3.255245E-08, -3.255245E-08, 2.029482E-05
13250000000, 7.724519E-02, 4.451570E-02, 2.026724E-05, -2.992101E-08, -2.992101E-08, 2.030192E-05
13500000000, 8.095829E-02, 3.608094E-02, 2.026160E-05, -2.602038E-08, -2.602038E-08, 2.030838E-05
13750000000, 8.333637E-02, 2.725913E-02, 2.025691E-05, -2.113282E-08, -2.113282E-08, 2.031461E-05
14000000000, 8.465365E-02, 1.804360E-02, 2.025319E-05, -1.496575E-08, -1.496575E-08, 2.032021E-05
14250000000, 8.492343E-02, 8.405151E-03, 2.025073E-05, -7.402386E-09, -7.402386E-09, 2.032479E-05
14500000000, 8.435744E-02, -1.183894E-03, 2.025002E-05, 1.084446E-09, 1.084446E-09, 2.032727E-05
14750000000, 8.300753E-02, -1.032610E-02, 2.025120E-05, 9.632236E-09, 9.632236E-09, 2.032743E-05
15000000000, 8.043972E-02, -1.876636E-02, 2.025416E-05, 1.784374E-08, 1.784374E-08, 2.032649E-05
15250000000, 7.680588E-02, -2.694371E-02, 2.025910E-05, 2.594776E-08, 2.594776E-08, 2.032397E-05
15500000000, 7.204642E-02, -3.497107E-02, 2.026637E-05, 3.371609E-08, 3.371609E-08, 2.031946E-05
15750000000, 6.645103E-02, -4.272745E-02, 2.027580E-05, 4.012895E-08, 4.012895E-08, 2.031241E-05
16000000000, 6.035423E-02, -4.995191E-02, 2.028647E-05, 4.406476E-08, 4.406476E-08, 2.030324E-05
16250000000, 5.378179E-02, -5.591403E-02, 2.029753E-05, 4.571402E-08, 4.571402E-08, 2.029397E-05
16500000000, 4.635198E-02, -6.075579E-02, 2.030962E-05, 4.548651E-08, 4.548651E-08, 2.028470E-05
16750000000, 3.823963E-02, -6.447778E-02, 2.032253E-05, 4.301801E-08, 4.301801E-08, 2.027551E-05
17000000000, 2.929345E-02, -6.748872E-02, 2.033568E-05, 3.719007E-08, 3.719007E-08, 2.026614E-05
17250000000, 2.031601E-02, -6.984805E-02, 2.034605E-05, 2.793777E-08, 2.793777E-08, 2.025813E-05
17500000000, 1.126604E-02, -7.121806E-02, 2.035346E-05, 1.636633E-08, 1.636633E-08, 2.025259E-05
17750000000, 2.305879E-03, -7.159469E-02, 2.035735E-05, 3.457489E-09, 3.457489E-09, 2.025011E-05
18000000000, -6.534571E-03, -7.065257E-02, 2.035861E-05, -1.004553E-08, -1.004553E-08, 2.025093E-05
18250000000, -1.529119E-02, -6.871049E-02, 2.516199E-05, -3.605077E-08, -3.605077E-08, 2.500802E-05
18500000000, -2.402737E-02, -6.578400E-02, 2.515155E-05, -5.535451E-08, -5.535451E-08, 2.502022E-05
18750000000, -3.251999E-02, -6.179467E-02, 2.513532E-05, -7.121258E-08, -7.121258E-08, 2.503748E-05
19000000000, -4.056694E-02, -5.701356E-02, 2.511424E-05, -8.128573E-08, -8.128573E-08, 2.505784E-05
19250000000, -4.799883E-02, -5.153457E-02, 2.509095E-05, -8.471167E-08, -8.471167E-08, 2.507890E-05
19500000000, -5.453673E-02, -4.517368E-02, 2.506835E-05, -8.251249E-08, -8.251249E-08, 2.509961E-05
19750000000, -6.028686E-02, -3.798148E-02, 2.504713E-05, -7.481324E-08, -7.481324E-08, 2.511875E-05
20000000000, -6.513599E-02, -2.996040E-02, 2.502861E-05, -6.219363E-08, -6.219363E-08, 2.513521E-05
20250000000, -6.911334E-02, -2.116798E-02, 2.501382E-05, -4.512287E-08, -4.512287E-08, 2.514733E-05
20500000000, -7.243118E-02, -1.211432E-02, 2.500425E-05, -2.539232E-08, -2.539232E-08, 2.515182E-05
20750000000, -7.473645E-02, -3.208281E-03, 2.500028E-05, -6.442611E-09, -6.442611E-09, 2.515008E-05
21000000000, -7.572902E-02, 5.759590E-03, 2.500084E-05, 1.102695E-08, 1.102695E-08, 2.514499E-05
21250000000, -7.543232E-02, 1.509471E-02, 2.500547E-05, 2.734054E-08, 2.734054E-08, 2.513663E-05
21500000000, -7.414991E-02, 2.477964E-02, 2.501382E-05, 4.134630E-08, 4.134630E-08, 2.512372E-05
21750000000, -7.223671E-02, 3.430280E-02, 2.502418E-05, 5.092050E-08, 5.092050E-08, 2.510723E-05
22000000000, -6.942884E-02, 4.352727E-02, 2.503530E-05, 5.629872E-08, 5.629872E-08, 2.508980E-05
22250000000, -6.557729E-02, 5.223507E-02, 2.504637E-05, 5.822035E-08, 5.822035E-08, 2.507309E-05
22500000000, -6.034898E-02, 6.037836E-02, 2.505763E-05, 5.759732E-08, 5.759732E-08, 2.505757E-05
22750000000, -5.391787E-02, 6.805622E-02, 2.506840E-05, 5.418816E-08, 5.418816E-08, 2.504293E-05
23000000000, -4.693282E-02, 7.532818E-02, 2.507673E-05, 4.780608E-08, 4.780608E-08, 2.502979E-05
23250000000, -3.952323E-02, 8.169008E-02, 2.508253E-05, 3.993018E-08, 3.993018E-08, 2.501932E-05
23500000000, -3.144199E-02, 8.685120E-02, 2.508690E-05, 3.145990E-08, 3.145990E-08, 2.501139E-05
23750000000, -2.236494E-02, 9.086728E-02, 2.509028E-05, 2.221951E-08, 2.221951E-08, 2.500547E-05
24000000000, -1.260593E-02, 9.399664E-02, 2.509156E-05, 1.227890E-08, 1.227890E-08, 2.500165E-05
24250000000, -2.781279E-03, 9.640488E-02, 2.509003E-05, 2.597430E-09, 2.597430E-09, 2.500007E-05
24500000000, 7.394991E-03, 9.802303E-02, 2.508623E-05, -6.505024E-09, -6.505024E-09, 2.500049E-05
24750000000, 1.742619E-02, 9.840861E-02, 2.508133E-05, -1.440229E-08, -1.440229E-08, 2.500255E-05
25000000000, 2.742359E-02, 9.736745E-02, 2.507585E-05, -2.136327E-08, -2.136327E-08, 2.500602E-05
25250000000, 3.731035E-02, 9.499508E-02, 2.506967E-05, -2.736329E-08, -2.736329E-08, 2.501075E-05
25500000000, 4.731611E-02, 9.173830E-02, 2.506209E-05, -3.202397E-08, -3.202397E-08, 2.501652E-05
25750000000, 5.686946E-02, 8.762403E-02, 2.505400E-05, -3.504563E-08, -3.504563E-08, 2.502275E-05
26000000000, 6.565961E-02, 8.236050E-02, 2.504615E-05, -3.678920E-08, -3.678920E-08, 2.502933E-05
26250000000, 7.354605E-02, 7.612161E-02, 2.503865E-05, -3.734663E-08, -3.734663E-08, 2.503608E-05
26500000000, 8.079421E-02, 6.877401E-02, 2.503125E-05, -3.671119E-08, -3.671119E-08, 2.504313E-05
26750000000, 8.806128E-02, 6.067334E-02, 4.231753E-05, -9.800892E-08, -9.800892E-08, 4.239225E-05
27000000000, 9.444296E-02, 5.212747E-02, 4.229813E-05, -8.720627E-08, -8.720627E-08, 4.240800E-05
27250000000, 9.956808E-02, 4.322820E-02, 4.228228E-05, -7.436120E-08, -7.436120E-08, 4.242128E-05
27500000000, 1.035035E-01, 3.354952E-02, 4.226926E-05, -5.942385E-08, -5.942385E-08, 4.243333E-05
27750000000, 1.061057E-01, 2.372096E-02, 4.225966E-05, -4.319929E-08, -4.319929E-08, 4.244323E-05
28000000000, 1.078999E-01, 1.318469E-02, 4.225299E-05, -2.443747E-08, -2.443747E-08, 4.244999E-05
28250000000, 1.091045E-01, 2.492969E-03, 4.225011E-05, -4.598669E-09, -4.598669E-09, 4.245126E-05
28500000000, 1.088758E-01, -8.045754E-03, 4.225109E-05, 1.478890E-08, 1.478890E-08, 4.245012E-05
28750000000, 1.075939E-01, -1.856526E-02, 4.225582E-05, 3.370918E-08, 3.370918E-08, 4.244536E-05
29000000000, 1.047990E-01, -2.901095E-02, 4.226444E-05, 5.215269E-08, 5.215269E-08, 4.243840E-05
29250000000, 1.011244E-01, -3.944410E-02, 4.227688E-05, 6.891813E-08, 6.891813E-08, 4.242669E-05
29500000000, 9.657907E-02, -4.915361E-02, 4.229202E-05, 8.256196E-08, 8.256196E-08, 4.241222E-05
29750000000, 9.095135E-02, -5.842741E-02, 4.230996E-05, 9.333853E-08, 9.333853E-08, 4.239530E-05
30000000000, 8.413815E-02, -6.681187E-02, 4.233037E-05, 1.012062E-07, 1.012062E-07, 4.237745E-05
30250000000, 7.669859E-02, -7.445448E-02, 4.235186E-05, 1.049340E-07, 1.049340E-07, 4.235810E-05
30500000000, 6.814156E-02, -8.120904E-02, 4.237529E-05, 1.051283E-07, 1.051283E-07, 4.233821E-05
30750000000, 5.917913E-02, -8.735192E-02, 4.239774E-05, 1.000880E-07, 1.000880E-07, 4.231781E-05
31000000000, 4.942456E-02, -9.225308E-02, 4.242024E-05, 9.120344E-08, 9.120344E-08, 4.229886E-05
31250000000, 3.956746E-02, -9.621706E-02, 4.243968E-05, 7.800108E-08, 7.800108E-08, 4.228208E-05
31500000000, 2.897329E-02, -9.924108E-02, 4.245694E-05, 6.041616E-08, 6.041616E-08, 4.226764E-05
31750000000, 1.823979E-02, -1.011249E-01, 4.247019E-05, 3.971551E-08, 3.971551E-08, 4.225716E-05
32000000000, 7.220769E-03, -1.018772E-01, 4.247901E-05, 1.623186E-08, 1.623186E-08, 4.225115E-05
32250000000, -3.195989E-03, -1.014523E-01, 4.248283E-05, -7.334549E-09, -7.334549E-09, 4.225023E-05
32500000000, -1.417190E-02, -9.971972E-02, 4.248203E-05, -3.297552E-08, -3.297552E-08, 4.225469E-05
32750000000, -2.498318E-02, -9.681808E-02, 4.247523E-05, -5.811913E-08, -5.811913E-08, 4.226500E-05
33000000000, -3.542269E-02, -9.310546E-02, 4.246144E-05, -8.044492E-08, -8.044492E-08, 4.228061E-05
33250000000, -4.544082E-02, -8.812726E-02, 4.244302E-05, -9.952586E-08, -9.952586E-08, 4.230132E-05
33500000000, -5.475884E-02, -8.210383E-02, 4.242072E-05, -1.138612E-07, -1.138612E-07, 4.232594E-05
33750000000, -6.320889E-02, -7.521693E-02, 4.239588E-05, -1.225880E-07, -1.225880E-07, 4.235302E-05
34000000000, -7.100176E-02, -6.738977E-02, 4.236883E-05, -1.251982E-07, -1.251982E-07, 4.238191E-05
34250000000, -7.786093E-02, -5.897281E-02, 4.234182E-05, -1.212235E-07, -1.212235E-07, 4.241005E-05
34500000000, -8.398473E-02, -5.025478E-02, 4.231613E-05, -1.105212E-07, -1.105212E-07, 4.243470E-05
34750000000, -8.874030E-02, -4.080523E-02, 4.229396E-05, -9.560297E-08, -9.560297E-08, 4.245791E-05
35000000000, -9.243646E-02, -3.085414E-02, 4.227537E-05, -7.599303E-08, -7.599303E-08, 4.247767E-05
35250000000, -9.491843E-02, -2.016037E-02, 4.226102E-05, -5.186790E-08, -5.186790E-08, 4.249420E-05
35500000000, -9.653416E-02, -9.185794E-03, 4.225229E-05, -2.410059E-08, -2.410059E-08, 4.250327E-05
35750000000, -9.724274E-02, 1.153391E-03, 4.225004E-05, 3.013297E-09, 3.013297E-09, 4.250405E-05
36000000000, -9.697203E-02, 1.144697E-02, 4.225346E-05, 2.933978E-08, 2.933978E-08, 4.249855E-05
36250000000, -9.523174E-02, 2.173044E-02, 4.226246E-05, 5.462079E-08, 5.462079E-08, 4.248937E-05
36500000000, -9.228705E-02, 3.194692E-02, 4.227696E-05, 7.787968E-08, 7.787968E-08, 4.247498E-05
36750000000, -8.838268E-02, 4.156265E-02, 4.229562E-05, 9.700463E-08, 9.700463E-08, 4.245628E-05
37000000000, -8.341868E-02, 5.089028E-02, 4.231825E-05, 1.118787E-07, 1.118787E-07, 4.243339E-05
37250000000, -7.803332E-02, 5.891399E-02, 4.234125E-05, 1.208626E-07, 1.208626E-07, 4.241009E-05
37500000000, -7.129433E-02, 6.667946E-02, 4.236766E-05, 1.257990E-07, 1.257990E-07, 4.238451E-05
37750000000, -6.353984E-02, 7.351184E-02, 4.239569E-05, 1.259233E-07, 1.259233E-07, 4.235884E-05
38000000000, -5.483751E-02, 7.953793E-02, 4.242453E-05, 1.203328E-07, 1.203328E-07, 4.233296E-05
38250000000, -4.659862E-02, 8.530678E-02, 4.244588E-05, 1.069985E-07, 1.069985E-07, 4.230845E-05
38500000000, -3.800888E-02, 8.918072E-02, 4.246641E-05, 9.223218E-08, 9.223218E-08, 4.228931E-05
38750000000, -2.919568E-02, 9.234848E-02, 4.248291E-05, 7.363393E-08, 7.363393E-08, 4.227328E-05
39000000000, -1.984388E-02, 9.450156E-02, 4.249687E-05, 5.183820E-08, 5.183820E-08, 4.226089E-05
39250000000, -1.011160E-02, 9.560686E-02, 4.250717E-05, 2.719865E-08, 2.719865E-08, 4.225288E-05
39500000000, -3.833195E-04, 9.593934E-02, 4.251114E-05, 1.043354E-09, 1.043354E-09, 4.225000E-05
39750000000, 8.591132E-03, 9.477500E-02, 4.251330E-05, -2.386746E-08, -2.386746E-08, 4.225216E-05
40000000000, 1.748501E-02, 9.229450E-02, 4.251308E-05, -4.983922E-08, -4.983922E-08, 4.225944E-05
